id,x,y,z
0,80.0,0.0,0
1,79.36917610515823,10.02665868514434,0
2,77.48665289029049,19.895190973188384,0
3,74.3821188710601,29.449964214774237,0
4,70.10453440350909,38.540293928137224,0
5,64.7213595499958,47.022820183397855,0
6,58.31749019371293,54.7637684742951,0
7,50.99391917989517,61.64105942206314,0
8,42.866143598319724,67.54623404016121,0
9,34.062343325205816,72.38616419728157,0
10,24.721359549995796,76.08452130361228,0
11,14.990505166857961,78.58298005829509,0
12,5.023241562345064,79.84213827426173,0
13,-5.023241562345072,79.84213827426173,0
14,-14.990505166857986,78.58298005829509,0
15,-24.721359549995803,76.08452130361228,0
16,-34.062343325205816,72.38616419728156,0
17,-42.86614359831975,67.5462340401612,0
18,-50.99391917989518,61.64105942206314,0
19,-58.317490193712935,54.76376847429508,0
20,-64.72135954999578,47.02282018339786,0
21,-70.10453440350909,38.54029392813722,0
22,-74.38211887106011,29.44996421477422,0
23,-77.48665289029049,19.895190973188384,0
24,-79.36917610515823,10.026658685144326,0
25,-80.0,-2.5729962394826185e-14,0
26,-79.36917610515823,-10.026658685144342,0
27,-77.48665289029049,-19.895190973188402,0
28,-74.3821188710601,-29.449964214774266,0
29,-70.10453440350908,-38.54029392813723,0
30,-64.72135954999578,-47.02282018339787,0
31,-58.31749019371293,-54.7637684742951,0
32,-50.99391917989516,-61.64105942206315,0
33,-42.86614359831971,-67.54623404016122,0
34,-34.062343325205774,-72.38616419728159,0
35,-24.721359549995803,-76.08452130361228,0
36,-14.99050516685797,-78.58298005829509,0
37,-5.023241562345056,-79.84213827426173,0
38,5.023241562345097,-79.84213827426173,0
39,14.99050516685801,-78.58298005829509,0
40,24.72135954999578,-76.08452130361229,0
41,34.06234332520581,-72.38616419728157,0
42,42.86614359831974,-67.5462340401612,0
43,50.9939191798952,-61.64105942206312,0
44,58.31749019371295,-54.76376847429506,0
45,64.72135954999582,-47.022820183397805,0
46,70.10453440350909,-38.540293928137224,0
47,74.38211887106011,-29.44996421477423,0
48,77.4866528902905,-19.89519097318836,0
49,79.36917610515823,-10.026658685144303,0
50,90.0,0.0,0
51,89.29032311830301,11.279991020787383,0
52,87.1724845015768,22.38208984483693,0
53,83.67988372994262,33.13120974162102,0
54,78.86760120394773,43.35783066915438,0
55,72.81152949374527,52.90067270632258,0
56,65.60717646792703,61.609239533581984,0
57,57.36815907738207,69.34619184982104,0
58,48.224411548109686,75.98951329518135,0
59,38.32013624085654,81.43443472194176,0
60,27.81152949374527,85.59508646656381,0
61,16.864318312715206,88.40585256558198,0
62,5.651146757638197,89.82240555854445,0
63,-5.651146757638206,89.82240555854445,0
64,-16.864318312715234,88.40585256558198,0
65,-27.81152949374528,85.59508646656381,0
66,-38.32013624085654,81.43443472194176,0
67,-48.22441154810972,75.98951329518135,0
68,-57.368159077382074,69.34619184982104,0
69,-65.60717646792705,61.60923953358196,0
70,-72.81152949374525,52.900672706322595,0
71,-78.86760120394773,43.35783066915437,0
72,-83.67988372994263,33.131209741621,0
73,-87.1724845015768,22.382089844836933,0
74,-89.29032311830301,11.279991020787369,0
75,-90.0,-2.894620769417946e-14,0
76,-89.29032311830301,-11.279991020787385,0
77,-87.1724845015768,-22.38208984483695,0
78,-83.67988372994262,-33.13120974162105,0
79,-78.86760120394771,-43.35783066915438,0
80,-72.81152949374525,-52.9006727063226,0
81,-65.60717646792703,-61.609239533581984,0
82,-57.36815907738206,-69.34619184982104,0
83,-48.22441154810967,-75.98951329518138,0
84,-38.32013624085649,-81.43443472194178,0
85,-27.81152949374528,-85.59508646656381,0
86,-16.864318312715216,-88.40585256558198,0
87,-5.651146757638188,-89.82240555854445,0
88,5.651146757638235,-89.82240555854445,0
89,16.864318312715262,-88.40585256558198,0
90,27.81152949374525,-85.59508646656383,0
91,38.320136240856534,-81.43443472194176,0
92,48.22441154810971,-75.98951329518135,0
93,57.368159077382096,-69.34619184982101,0
94,65.60717646792708,-61.60923953358194,0
95,72.8115294937453,-52.90067270632253,0
96,78.86760120394773,-43.35783066915438,0
97,83.67988372994263,-33.13120974162101,0
98,87.1724845015768,-22.382089844836905,0
99,89.29032311830301,-11.27999102078734,0
100,100.0,0.0,0
101,99.21147013144778,12.533323356430426,0
102,96.85831611286311,24.86898871648548,0
103,92.97764858882513,36.8124552684678,0
104,87.63066800438637,48.17536741017153,0
105,80.90169943749474,58.778525229247315,0
106,72.89686274214115,68.45471059286888,0
107,63.74239897486896,77.05132427757893,0
108,53.582679497899655,84.43279255020151,0
109,42.57792915650727,90.48270524660195,0
110,30.901699437494745,95.10565162951535,0
111,18.73813145857245,98.22872507286887,0
112,6.27905195293133,99.80267284282715,0
113,-6.27905195293134,99.80267284282715,0
114,-18.738131458572482,98.22872507286885,0
115,-30.901699437494756,95.10565162951535,0
116,-42.577929156507274,90.48270524660195,0
117,-53.58267949789969,84.4327925502015,0
118,-63.742398974868976,77.05132427757893,0
119,-72.89686274214117,68.45471059286885,0
120,-80.90169943749473,58.77852522924732,0
121,-87.63066800438637,48.17536741017152,0
122,-92.97764858882515,36.81245526846777,0
123,-96.85831611286311,24.868988716485482,0
124,-99.21147013144778,12.53332335643041,0
125,-100.0,-3.2162452993532734e-14,0
126,-99.21147013144778,-12.53332335643043,0
127,-96.85831611286311,-24.8689887164855,0
128,-92.97764858882512,-36.81245526846783,0
129,-87.63066800438635,-48.17536741017154,0
130,-80.90169943749473,-58.778525229247336,0
131,-72.89686274214115,-68.45471059286888,0
132,-63.742398974868955,-77.05132427757894,0
133,-53.58267949789963,-84.43279255020153,0
134,-42.57792915650722,-90.48270524660198,0
135,-30.901699437494756,-95.10565162951535,0
136,-18.738131458572465,-98.22872507286887,0
137,-6.2790519529313205,-99.80267284282715,0
138,6.279051952931372,-99.80267284282715,0
139,18.738131458572514,-98.22872507286885,0
140,30.901699437494724,-95.10565162951536,0
141,42.57792915650726,-90.48270524660195,0
142,53.582679497899676,-84.4327925502015,0
143,63.742398974869,-77.0513242775789,0
144,72.8968627421412,-68.45471059286882,0
145,80.90169943749478,-58.77852522924726,0
146,87.63066800438637,-48.17536741017153,0
147,92.97764858882515,-36.81245526846779,0
148,96.85831611286312,-24.86898871648545,0
149,99.21147013144778,-12.533323356430378,0
150,110.0,0.0,0
151,109.13261714459257,13.786655692073468,0
152,106.54414772414941,27.355887588134028,0
153,102.27541344770765,40.493700795314574,0
154,96.39373480482499,52.99290415118868,0
155,88.99186938124421,64.65637775217205,0
156,80.18654901635527,75.30018165215576,0
157,70.11663887235586,84.75645670533682,0
158,58.940947447689624,92.87607180522166,0
159,46.83572207215799,99.53097577126215,0
160,33.99186938124422,104.61621679246689,0
161,20.6119446044297,108.05159758015576,0
162,6.906957148224463,109.78294012710987,0
163,-6.906957148224474,109.78294012710987,0
164,-20.61194460442973,108.05159758015574,0
165,-33.99186938124423,104.61621679246689,0
166,-46.835722072158,99.53097577126213,0
167,-58.94094744768966,92.87607180522164,0
168,-70.11663887235588,84.75645670533682,0
169,-80.18654901635529,75.30018165215573,0
170,-88.99186938124421,64.65637775217206,0
171,-96.39373480482499,52.992904151188675,0
172,-102.27541344770766,40.49370079531455,0
173,-106.54414772414941,27.35588758813403,0
174,-109.13261714459257,13.78665569207345,0
175,-110.0,-3.5378698292886e-14,0
176,-109.13261714459257,-13.786655692073472,0
177,-106.54414772414941,-27.355887588134053,0
178,-102.27541344770763,-40.493700795314616,0
179,-96.39373480482499,-52.99290415118869,0
180,-88.9918693812442,-64.65637775217206,0
181,-80.18654901635527,-75.30018165215576,0
182,-70.11663887235585,-84.75645670533683,0
183,-58.940947447689595,-92.87607180522168,0
184,-46.835722072157935,-99.53097577126218,0
185,-33.99186938124423,-104.61621679246689,0
186,-20.61194460442971,-108.05159758015576,0
187,-6.9069571482244525,-109.78294012710987,0
188,6.906957148224509,-109.78294012710987,0
189,20.611944604429763,-108.05159758015574,0
190,33.99186938124419,-104.6162167924669,0
191,46.835722072157985,-99.53097577126215,0
192,58.940947447689645,-92.87607180522164,0
193,70.11663887235589,-84.75645670533679,0
194,80.1865490163553,-75.30018165215571,0
195,88.99186938124426,-64.65637775217198,0
196,96.39373480482499,-52.99290415118868,0
197,102.27541344770766,-40.49370079531457,0
198,106.54414772414943,-27.355887588133992,0
199,109.13261714459257,-13.786655692073417,0
200,120.0,0.0,0
201,119.05376415773735,15.039988027716511,0
202,116.22997933543573,29.842786459782577,0
203,111.57317830659017,44.174946322161354,0
204,105.15680160526362,57.81044089220584,0
205,97.0820393249937,70.53423027509677,0
206,87.47623529056939,82.14565271144265,0
207,76.49087876984275,92.4615891330947,0
208,64.29921539747959,101.31935106024181,0
209,51.09351498780872,108.57924629592235,0
210,37.082039324993694,114.12678195541842,0
211,22.485757750286943,117.87447008744265,0
212,7.534862343517597,119.76320741139259,0
213,-7.5348623435176085,119.76320741139259,0
214,-22.48575775028698,117.87447008744263,0
215,-37.08203932499371,114.12678195541842,0
216,-51.093514987808724,108.57924629592233,0
217,-64.29921539747963,101.3193510602418,0
218,-76.49087876984277,92.4615891330947,0
219,-87.4762352905694,82.14565271144262,0
220,-97.08203932499369,70.53423027509679,0
221,-105.15680160526362,57.810440892205825,0
222,-111.57317830659018,44.17494632216133,0
223,-116.22997933543573,29.84278645978258,0
224,-119.05376415773735,15.039988027716491,0
225,-120.0,-3.859494359223928e-14,0
226,-119.05376415773735,-15.039988027716515,0
227,-116.22997933543573,-29.8427864597826,0
228,-111.57317830659015,-44.1749463221614,0
229,-105.15680160526361,-57.81044089220585,0
230,-97.08203932499367,-70.5342302750968,0
231,-87.47623529056939,-82.14565271144265,0
232,-76.49087876984274,-92.46158913309472,0
233,-64.29921539747956,-101.31935106024184,0
234,-51.09351498780866,-108.57924629592237,0
235,-37.08203932499371,-114.12678195541842,0
236,-22.485757750286954,-117.87447008744265,0
237,-7.5348623435175845,-119.76320741139259,0
238,7.534862343517647,-119.76320741139259,0
239,22.485757750287014,-117.87447008744263,0
240,37.082039324993666,-114.12678195541844,0
241,51.09351498780871,-108.57924629592235,0
242,64.29921539747961,-101.3193510602418,0
243,76.4908787698428,-92.46158913309469,0
244,87.47623529056942,-82.1456527114426,0
245,97.08203932499373,-70.5342302750967,0
246,105.15680160526362,-57.81044089220584,0
247,111.57317830659018,-44.17494632216135,0
248,116.22997933543574,-29.842786459782538,0
249,119.05376415773735,-15.039988027716454,0
250,130.0,0.0,0
251,128.97491117088214,16.293320363359555,0
252,125.91581094672205,32.32968533143112,0
253,120.87094316547268,47.856191849008134,0
254,113.91986840570226,62.62797763322299,0
255,105.17220926874317,76.4120827980215,0
256,94.7659215647835,88.99112377072953,0
257,82.86511866732965,100.16672156085261,0
258,69.65748334726955,109.76263031526196,0
259,55.35130790345944,117.62751682058254,0
260,40.17220926874317,123.63734711836996,0
261,24.359570896144188,127.69734259472953,0
262,8.16276753881073,129.7434746956753,0
263,-8.162767538810742,129.7434746956753,0
264,-24.359570896144227,127.69734259472952,0
265,-40.17220926874318,123.63734711836996,0
266,-55.35130790345945,117.62751682058253,0
267,-69.65748334726959,109.76263031526194,0
268,-82.86511866732967,100.16672156085261,0
269,-94.76592156478351,88.9911237707295,0
270,-105.17220926874316,76.41208279802152,0
271,-113.91986840570226,62.627977633222976,0
272,-120.8709431654727,47.856191849008106,0
273,-125.91581094672205,32.32968533143113,0
274,-128.97491117088214,16.29332036335953,0
275,-130.0,-4.181118889159255e-14,0
276,-128.97491117088214,-16.29332036335956,0
277,-125.91581094672205,-32.32968533143115,0
278,-120.87094316547267,-47.85619184900818,0
279,-113.91986840570225,-62.627977633223,0
280,-105.17220926874315,-76.41208279802154,0
281,-94.7659215647835,-88.99112377072953,0
282,-82.86511866732964,-100.16672156085262,0
283,-69.65748334726952,-109.76263031526199,0
284,-55.35130790345938,-117.62751682058257,0
285,-40.17220926874318,-123.63734711836996,0
286,-24.359570896144202,-127.69734259472953,0
287,-8.162767538810717,-129.7434746956753,0
288,8.162767538810783,-129.7434746956753,0
289,24.359570896144266,-127.69734259472952,0
290,40.17220926874314,-123.63734711836997,0
291,55.351307903459436,-117.62751682058254,0
292,69.65748334726958,-109.76263031526194,0
293,82.8651186673297,-100.16672156085258,0
294,94.76592156478354,-88.99112377072947,0
295,105.17220926874322,-76.41208279802143,0
296,113.91986840570226,-62.62797763322299,0
297,120.8709431654727,-47.85619184900812,0
298,125.91581094672206,-32.32968533143109,0
299,128.97491117088214,-16.29332036335949,0
300,140.0,0.0,0
301,138.8960581840269,17.546652699002596,0
302,135.60164255800834,34.81658420307967,0
303,130.1687080243552,51.537437375854914,0
304,122.6829352061409,67.44551437424015,0
305,113.26237921249265,82.28993532094624,0
306,102.05560783899762,95.83659483001642,0
307,89.23935856481656,107.8718539886105,0
308,75.01575129705952,118.20590957028212,0
309,59.609100819110175,126.67578734524274,0
310,43.26237921249265,133.14791228132148,0
311,26.233384042001433,137.5202151020164,0
312,8.790672734103863,139.72374197995802,0
313,-8.790672734103877,139.72374197995802,0
314,-26.233384042001475,137.5202151020164,0
315,-43.26237921249266,133.14791228132148,0
316,-59.60910081911018,126.67578734524272,0
317,-75.01575129705957,118.20590957028209,0
318,-89.23935856481657,107.8718539886105,0
319,-102.05560783899763,95.8365948300164,0
320,-113.26237921249263,82.28993532094626,0
321,-122.6829352061409,67.44551437424013,0
322,-130.1687080243552,51.537437375854886,0
323,-135.60164255800834,34.81658420307968,0
324,-138.8960581840269,17.54665269900257,0
325,-140.0,-4.5027434190945827e-14,0
326,-138.8960581840269,-17.5466526990026,0
327,-135.60164255800834,-34.8165842030797,0
328,-130.16870802435517,-51.537437375854964,0
329,-122.68293520614088,-67.44551437424015,0
330,-113.26237921249262,-82.28993532094627,0
331,-102.05560783899762,-95.83659483001642,0
332,-89.23935856481653,-107.87185398861051,0
333,-75.01575129705948,-118.20590957028215,0
334,-59.609100819110104,-126.67578734524277,0
335,-43.26237921249266,-133.14791228132148,0
336,-26.233384042001447,-137.5202151020164,0
337,-8.790672734103849,-139.72374197995802,0
338,8.790672734103921,-139.72374197995802,0
339,26.233384042001518,-137.5202151020164,0
340,43.26237921249261,-133.1479122813215,0
341,59.60910081911017,-126.67578734524274,0
342,75.01575129705955,-118.20590957028209,0
343,89.2393585648166,-107.87185398861047,0
344,102.05560783899766,-95.83659483001637,0
345,113.26237921249269,-82.28993532094616,0
346,122.6829352061409,-67.44551437424015,0
347,130.1687080243552,-51.5374373758549,0
348,135.60164255800836,-34.81658420307963,0
349,138.8960581840269,-17.54665269900253,0
350,150.0,0.0,0
351,148.8172051971717,18.799985034645637,0
352,145.28747416929465,37.30348307472822,0
353,139.4664728832377,55.218682902701694,0
354,131.44600200657953,72.2630511152573,0
355,121.35254915624212,88.16778784387097,0
356,109.34529411321174,102.6820658893033,0
357,95.61359846230344,115.57698641636838,0
358,80.37401924684949,126.64918882530226,0
359,63.8668937347609,135.72405786990294,0
360,46.35254915624212,142.65847744427302,0
361,28.107197187858677,147.3430876093033,0
362,9.418577929396996,149.70400926424074,0
363,-9.41857792939701,149.70400926424074,0
364,-28.107197187858723,147.3430876093033,0
365,-46.352549156242134,142.65847744427302,0
366,-63.86689373476091,135.7240578699029,0
367,-80.37401924684953,126.64918882530225,0
368,-95.61359846230346,115.57698641636838,0
369,-109.34529411321175,102.68206588930327,0
370,-121.3525491562421,88.16778784387098,0
371,-131.44600200657953,72.26305111525728,0
372,-139.4664728832377,55.218682902701666,0
373,-145.28747416929465,37.30348307472822,0
374,-148.8172051971717,18.799985034645612,0
375,-150.0,-4.8243679490299095e-14,0
376,-148.8172051971717,-18.799985034645644,0
377,-145.28747416929465,-37.303483074728256,0
378,-139.46647288323769,-55.218682902701744,0
379,-131.44600200657953,-72.26305111525731,0
380,-121.35254915624209,-88.167787843871,0
381,-109.34529411321174,-102.6820658893033,0
382,-95.61359846230343,-115.5769864163684,0
383,-80.37401924684944,-126.64918882530229,0
384,-63.86689373476082,-135.72405786990296,0
385,-46.352549156242134,-142.65847744427302,0
386,-28.107197187858695,-147.3430876093033,0
387,-9.418577929396982,-149.70400926424074,0
388,9.418577929397058,-149.70400926424074,0
389,28.10719718785877,-147.3430876093033,0
390,46.352549156242084,-142.65847744427305,0
391,63.86689373476089,-135.72405786990294,0
392,80.37401924684951,-126.64918882530225,0
393,95.6135984623035,-115.57698641636836,0
394,109.34529411321178,-102.68206588930325,0
395,121.35254915624216,-88.16778784387088,0
396,131.44600200657953,-72.2630511152573,0
397,139.4664728832377,-55.21868290270168,0
398,145.28747416929468,-37.30348307472817,0
399,148.8172051971717,-18.79998503464557,0
400,160.0,0.0,0
401,158.73835221031646,20.05331737028868,0
402,154.97330578058097,39.79038194637677,0
403,148.7642377421202,58.899928429548474,0
404,140.20906880701818,77.08058785627445,0
405,129.4427190999916,94.04564036679571,0
406,116.63498038742586,109.5275369485902,0
407,101.98783835979035,123.28211884412627,0
408,85.73228719663945,135.09246808032242,0
409,68.12468665041163,144.77232839456315,0
410,49.44271909999159,152.16904260722455,0
411,29.981010333715922,157.16596011659018,0
412,10.046483124690129,159.68427654852346,0
413,-10.046483124690145,159.68427654852346,0
414,-29.98101033371597,157.16596011659018,0
415,-49.442719099991606,152.16904260722455,0
416,-68.12468665041163,144.77232839456312,0
417,-85.7322871966395,135.0924680803224,0
418,-101.98783835979036,123.28211884412627,0
419,-116.63498038742587,109.52753694859015,0
420,-129.44271909999156,94.04564036679572,0
421,-140.20906880701818,77.08058785627443,0
422,-148.76423774212023,58.89992842954844,0
423,-154.97330578058097,39.79038194637677,0
424,-158.73835221031646,20.053317370288653,0
425,-160.0,-5.145992478965237e-14,0
426,-158.73835221031646,-20.053317370288685,0
427,-154.97330578058097,-39.790381946376804,0
428,-148.7642377421202,-58.89992842954853,0
429,-140.20906880701816,-77.08058785627446,0
430,-129.44271909999156,-94.04564036679574,0
431,-116.63498038742586,-109.5275369485902,0
432,-101.98783835979032,-123.2821188441263,0
433,-85.73228719663942,-135.09246808032245,0
434,-68.12468665041155,-144.77232839456317,0
435,-49.442719099991606,-152.16904260722455,0
436,-29.98101033371594,-157.16596011659018,0
437,-10.046483124690113,-159.68427654852346,0
438,10.046483124690194,-159.68427654852346,0
439,29.98101033371602,-157.16596011659018,0
440,49.44271909999156,-152.16904260722458,0
441,68.12468665041162,-144.77232839456315,0
442,85.73228719663948,-135.0924680803224,0
443,101.9878383597904,-123.28211884412624,0
444,116.6349803874259,-109.52753694859013,0
445,129.44271909999165,-94.04564036679561,0
446,140.20906880701818,-77.08058785627445,0
447,148.76423774212023,-58.89992842954846,0
448,154.973305780581,-39.79038194637672,0
449,158.73835221031646,-20.053317370288607,0
450,170.0,0.0,0
451,168.65949922346124,21.306649705931726,0
452,164.6591373918673,42.27728081802532,0
453,158.06200260100272,62.581173956395254,0
454,148.9721356074568,81.8981245972916,0
455,137.53288904374108,99.92349288972044,0
456,123.92466666163996,116.37300800787709,0
457,108.36207825727723,130.98725127188416,0
458,91.09055514642941,143.53574733534256,0
459,72.38247956606236,153.82059891922333,0
460,52.532889043741065,161.6796077701761,0
461,31.854823479573167,166.98883262387707,0
462,10.674388319983262,169.66454383280617,0
463,-10.674388319983278,169.66454383280617,0
464,-31.85482347957322,166.98883262387707,0
465,-52.532889043741086,161.6796077701761,0
466,-72.38247956606236,153.8205989192233,0
467,-91.09055514642947,143.53574733534253,0
