id,x,y,z
1,17.15893313,-69.61652831,0
2,33.32065144,-63.48719704,0
3,47.5458946,-53.66822064,0
4,59.00794318,-40.73024234,0
5,67.0406646,-25.4251704,0
6,71.17722627,-8.642479974,0
7,71.17722627,8.642479974,0
8,67.0406646,25.4251704,0
9,59.00794318,40.73024234,0
10,47.5458946,53.66822064,0
11,33.32065144,63.48719704,0
12,17.15893313,69.61652831,0
13,8.78E-15,71.7,0
14,-17.15893313,69.61652831,0
15,-33.32065144,63.48719704,0
16,-47.5458946,53.66822064,0
17,-59.00794318,40.73024234,0
18,-67.0406646,25.4251704,0
19,-71.17722627,8.642479974,0
20,-71.17722627,-8.642479974,0
21,-67.0406646,-25.4251704,0
22,-59.00794318,-40.73024234,0
23,-47.5458946,-53.66822064,0
24,-33.32065144,-63.48719704,0
25,-17.15893313,-69.61652831,0
26,16.8055105,-87.19526832,0
27,33.00362606,-82.43907245,0
28,48.00890459,-74.70331372,0
29,61.27901622,-64.26758258,0
30,72.33434454,-51.50905357,0
31,80.77532119,-36.88885315,0
32,86.29686727,-20.93539347,0
33,88.69941972,-4.225274125,0
34,87.89614404,12.63755764,0
35,83.9160727,29.04363514,0
36,76.90305586,44.4,0
37,67.1105622,58.15163317,0
38,54.89251798,69.80151481,0
39,40.69051513,78.92858784,0
40,25.01785105,85.20297606,0
41,8.440976645,88.39790672,0
42,-8.440976645,88.39790672,0
43,-25.01785105,85.20297606,0
44,-40.69051513,78.92858784,0
45,-54.89251798,69.80151481,0
46,-67.1105622,58.15163317,0
47,-76.90305586,44.4,0
48,-83.9160727,29.04363514,0
49,-87.89614404,12.63755764,0
50,-88.69941972,-4.225274125,0
51,-86.29686727,-20.93539347,0
52,-80.77532119,-36.88885315,0
53,-72.33434454,-51.50905357,0
54,-61.27901622,-64.26758258,0
55,-48.00890459,-74.70331372,0
56,-33.00362606,-82.43907245,0
57,-16.8055105,-87.19526832,0
58,17.33181036,-103.8638452,0
59,34.19085411,-99.59455555,0
60,50.11726049,-92.608586,0
61,64.67659865,-83.09649564,0
62,77.47172779,-71.31774949,0
63,88.15363016,-57.59364105,0
64,96.4309313,-42.29852822,0
65,102.077848,-25.8496218,0
66,104.9403471,-8.695605078,0
67,104.9403471,8.695605078,0
68,102.077848,25.8496218,0
69,96.4309313,42.29852822,0
70,88.15363016,57.59364105,0
71,77.47172779,71.31774949,0
72,64.67659865,83.09649564,0
73,50.11726049,92.608586,0
74,34.19085411,99.59455555,0
75,17.33181036,103.8638452,0
76,1.29E-14,105.3,0
77,-17.33181036,103.8638452,0
78,-34.19085411,99.59455555,0
79,-50.11726049,92.608586,0
80,-64.67659865,83.09649564,0
81,-77.47172779,71.31774949,0
82,-88.15363016,57.59364105,0
83,-96.4309313,42.29852822,0
84,-102.077848,25.8496218,0
85,-104.9403471,8.695605078,0
86,-104.9403471,-8.695605078,0
87,-102.077848,-25.8496218,0
88,-96.4309313,-42.29852822,0
89,-88.15363016,-57.59364105,0
90,-77.47172779,-71.31774949,0
91,-64.67659865,-83.09649564,0
92,-50.11726049,-92.608586,0
93,-34.19085411,-99.59455555,0
94,-17.33181036,-103.8638452,0
95,16.82602791,-119.7234095,0
96,33.32455632,-116.216539,0
97,49.17446015,-110.4476458,0
98,64.06723905,-102.5290148,0
99,77.71302201,-92.61477317,0
100,89.8462094,-80.89789031,0
101,100.2306425,-67.60642203,0
102,108.6642002,-52.99907165,0
103,114.9827328,-37.36015462,0
104,119.0632573,-20.99406468,0
105,120.826351,-4.219349151,0
106,120.2376972,12.63749121,0
107,117.3087533,29.24835718,0
108,112.096528,45.28993714,0
109,104.7024713,60.45,0
110,95.27050011,74.43347237,0
111,83.98419699,86.96818186,0
112,71.063237,97.81015462,0
113,56.75911194,106.748364,0
114,41.35023533,113.6088379,0
115,25.13652342,118.2580449,0
116,8.433557676,120.6054937,0
117,-8.433557676,120.6054937,0
118,-25.13652342,118.2580449,0
119,-41.35023533,113.6088379,0
120,-56.75911194,106.748364,0
121,-71.063237,97.81015462,0
122,-83.98419699,86.96818186,0
123,-95.27050011,74.43347237,0
124,-104.7024713,60.45,0
125,-112.096528,45.28993714,0
126,-117.3087533,29.24835718,0
127,-120.2376972,12.63749121,0
128,-120.826351,-4.219349151,0
129,-119.0632573,-20.99406468,0
130,-114.9827328,-37.36015462,0
131,-108.6642002,-52.99907165,0
132,-100.2306425,-67.60642203,0
133,-89.8462094,-80.89789031,0
134,-77.71302201,-92.61477317,0
135,-64.06723905,-102.5290148,0
136,-49.17446015,-110.4476458,0
137,-33.32455632,-116.216539,0
138,-16.82602791,-119.7234095,0
139,17.24585294,-136.5149829,0
140,34.21972847,-133.277043,0
141,50.65393845,-127.9372445,0
142,66.28930556,-120.5797992,0
143,80.87925072,-111.3207384,0
144,94.19368178,-100.3060831,0
145,106.0226222,-87.70954099,0
146,116.1795225,-73.72976699,0
147,124.5042024,-58.58723052,0
148,130.8653766,-42.52073843,0
149,135.1627257,-25.78366889,0
150,137.3284778,-8.639975487,0
151,137.3284778,8.639975487,0
152,135.1627257,25.78366889,0
153,130.8653766,42.52073843,0
154,124.5042024,58.58723052,0
155,116.1795225,73.72976699,0
156,106.0226222,87.70954099,0
157,94.19368178,100.3060831,0
158,80.87925072,111.3207384,0
159,66.28930556,120.5797992,0
160,50.65393845,127.9372445,0
161,34.21972847,133.277043,0
162,17.24585294,136.5149829,0
163,-4.43E-14,137.6,0
164,-17.24585294,136.5149829,0
165,-34.21972847,133.277043,0
166,-50.65393845,127.9372445,0
167,-66.28930556,120.5797992,0
168,-80.87925072,111.3207384,0
169,-94.19368178,100.3060831,0
170,-106.0226222,87.70954099,0
171,-116.1795225,73.72976699,0
172,-124.5042024,58.58723052,0
173,-130.8653766,42.52073843,0
174,-135.1627257,25.78366889,0
175,-137.3284778,8.639975487,0
176,-137.3284778,-8.639975487,0
177,-135.1627257,-25.78366889,0
178,-130.8653766,-42.52073843,0
179,-124.5042024,-58.58723052,0
180,-116.1795225,-73.72976699,0
181,-106.0226222,-87.70954099,0
182,-94.19368178,-100.3060831,0
183,-80.87925072,-111.3207384,0
184,-66.28930556,-120.5797992,0
185,-50.65393845,-127.9372445,0
186,-34.21972847,-133.277043,0
187,-17.24585294,-136.5149829,0
188,17.01827179,-153.7610758,0
189,33.82996481,-150.9557004,0
190,50.23100789,-146.3179273,0
191,66.02231457,-139.9040528,0
192,81.01219979,-131.7919325,0
193,95.01870665,-122.0800368,0
194,107.8718151,-110.8862548,0
195,119.4155059,-98.34646385,0
196,129.5096542,-84.61288006,0
197,138.0317307,-69.85221053,0
198,144.878289,-54.24362979,0
199,149.9662211,-37.97660486,0
200,153.2337665,-21.24859539,0
201,154.6412615,-4.262656764,0
202,154.1716211,12.77502474,0
203,151.830546,29.65763476,0
204,147.6464538,46.18024126,0
205,141.6701336,62.14228219,0
206,133.97413,77.35,0
207,124.6518618,91.61879359,0
208,113.816489,104.7754591,0
209,101.5995381,116.6602925,0
210,88.1493065,127.129028,0
211,73.6290617,136.0545893,0
212,58.21505984,143.3286322,0
213,42.09440601,148.8628596,0
214,25.46278312,152.5900936,0
215,8.522076527,154.4650906,0
216,-8.522076527,154.4650906,0
217,-25.46278312,152.5900936,0
218,-42.09440601,148.8628596,0
219,-58.21505984,143.3286322,0
220,-73.6290617,136.0545893,0
221,-88.1493065,127.129028,0
222,-101.5995381,116.6602925,0
223,-113.816489,104.7754591,0
224,-124.6518618,91.61879359,0
225,-133.97413,77.35,0
226,-141.6701336,62.14228219,0
227,-147.6464538,46.18024126,0
228,-151.830546,29.65763476,0
229,-154.1716211,12.77502474,0
230,-154.6412615,-4.262656764,0
231,-153.2337665,-21.24859539,0
232,-149.9662211,-37.97660486,0
233,-144.878289,-54.24362979,0
234,-138.0317307,-69.85221053,0
235,-129.5096542,-84.61288006,0
236,-119.4155059,-98.34646385,0
237,-107.8718151,-110.8862548,0
238,-95.01870665,-122.0800368,0
239,-81.01219979,-131.7919325,0
240,-66.02231457,-139.9040528,0
241,-50.23100789,-146.3179273,0
242,-33.82996481,-150.9557004,0
243,-17.01827179,-153.7610758,0
244,16.99617213,-172.5650316,0
245,33.82866184,-170.0681676,0
246,50.33536304,-165.9334542,0
247,66.35730717,-160.2007109,0
248,81.74019417,-152.9251472,0
249,96.33587841,-144.1768308,0
250,110.0037955,-134.0400126,0
251,122.6123159,-122.6123159,0
252,134.0400126,-110.0037955,0
253,144.1768308,-96.33587841,0
254,152.9251472,-81.74019417,0
255,160.2007109,-66.35730717,0
256,165.9334542,-50.33536304,0
257,170.0681676,-33.82866184,0
258,172.5650316,-16.99617213,0
259,173.4,-1.06E-14,0
260,172.5650316,16.99617213,0
261,170.0681676,33.82866184,0
262,165.9334542,50.33536304,0
263,160.2007109,66.35730717,0
264,152.9251472,81.74019417,0
265,144.1768308,96.33587841,0
266,134.0400126,110.0037955,0
267,122.6123159,122.6123159,0
268,110.0037955,134.0400126,0
269,96.33587841,144.1768308,0
270,81.74019417,152.9251472,0
271,66.35730717,160.2007109,0
272,50.33536304,165.9334542,0
273,33.82866184,170.0681676,0
274,16.99617213,172.5650316,0
275,2.12E-14,173.4,0
276,-16.99617213,172.5650316,0
277,-33.82866184,170.0681676,0
278,-50.33536304,165.9334542,0
279,-66.35730717,160.2007109,0
280,-81.74019417,152.9251472,0
281,-96.33587841,144.1768308,0
282,-110.0037955,134.0400126,0
283,-122.6123159,122.6123159,0
284,-134.0400126,110.0037955,0
285,-144.1768308,96.33587841,0
286,-152.9251472,81.74019417,0
287,-160.2007109,66.35730717,0
288,-165.9334542,50.33536304,0
289,-170.0681676,33.82866184,0
290,-172.5650316,16.99617213,0
291,-173.4,3.19E-14,0
292,-172.5650316,-16.99617213,0
293,-170.0681676,-33.82866184,0
294,-165.9334542,-50.33536304,0
295,-160.2007109,-66.35730717,0
296,-152.9251472,-81.74019417,0
297,-144.1768308,-96.33587841,0
298,-134.0400126,-110.0037955,0
299,-122.6123159,-122.6123159,0
300,-110.0037955,-134.0400126,0
301,-96.33587841,-144.1768308,0
302,-81.74019417,-152.9251472,0
303,-66.35730717,-160.2007109,0
304,-50.33536304,-165.9334542,0
305,-33.82866184,-170.0681676,0
306,-16.99617213,-172.5650316,0
307,17.11922626,-192.9420174,0
308,34.10447136,-190.674002,0
309,50.82280274,-186.9137039,0
310,67.14337677,-181.6905527,0
311,82.93846285,-175.0454266,0
312,98.084443,-167.0303327,0
313,112.4627794,-157.708,0
314,125.9609421,-147.1513883,0
315,138.4732896,-135.4431175,0
316,149.9018958,-122.6748207,0
317,160.1573165,-108.946427,0
318,169.1592891,-94.36537988,0
319,176.8373608,-79.04579569,0
320,183.1314405,-63.10757098,0
321,187.9922683,-46.67544397,0
322,191.3818017,-29.87801832,0
323,193.273513,-12.84675666,0
324,193.6525971,4.285048282,0
325,192.516087,21.38331691,0
326,189.8728775,38.31423209,0
327,185.7436553,54.94528646,0
328,180.1607372,71.14631947,0
329,173.167817,86.79053606,0
330,164.8196239,101.755499,0
331,155.1814937,115.9240873,0
332,144.328858,129.1854123,0
333,132.3466532,141.4356864,0
334,119.3286565,152.5790344,0
335,105.3767512,162.5282447,0
336,90.60012993,171.205451,0
337,75.11443983,178.5427426,0
338,59.0408774,184.4826951,0
339,42.50524005,188.9788204,0
340,25.63694157,191.9959302,0
341,8.567999261,193.5104116,0
342,-8.567999261,193.5104116,0
343,-25.63694157,191.9959302,0
344,-42.50524005,188.9788204,0
345,-59.0408774,184.4826951,0
346,-75.11443983,178.5427426,0
347,-90.60012993,171.205451,0
348,-105.3767512,162.5282447,0
349,-119.3286565,152.5790344,0
350,-132.3466532,141.4356864,0
351,-144.328858,129.1854123,0
352,-155.1814937,115.9240873,0
353,-164.8196239,101.755499,0
354,-173.167817,86.79053606,0
355,-180.1607372,71.14631947,0
356,-185.7436553,54.94528646,0
357,-189.8728775,38.31423209,0
358,-192.516087,21.38331691,0
359,-193.6525971,4.285048282,0
360,-193.273513,-12.84675666,0
361,-191.3818017,-29.87801832,0
362,-187.9922683,-46.67544397,0
363,-183.1314405,-63.10757098,0
364,-176.8373608,-79.04579569,0
365,-169.1592891,-94.36537988,0
366,-160.1573165,-108.946427,0
367,-149.9018958,-122.6748207,0
368,-138.4732896,-135.4431175,0
369,-125.9609421,-147.1513883,0
370,-112.4627794,-157.708,0
371,-98.084443,-167.0303327,0
372,-82.93846285,-175.0454266,0
373,-67.14337677,-181.6905527,0
374,-50.82280274,-186.9137039,0
375,-34.10447136,-190.674002,0
376,-17.11922626,-192.9420174,0
377,19.43380217,-215.9272269,0
378,38.71113479,-213.3159348,0
379,57.67678812,-208.9871482,0
380,76.17806186,-202.97572,0
381,94.06599464,-195.3300506,0
382,111.1965633,-186.1116985,0
383,127.4318427,-175.3948844,0
384,142.6411158,-163.2658938,0
385,156.7019265,-149.8223823,0
386,169.5010654,-135.172589,0
387,180.9354814,-119.4344656,0
388,190.9131113,-102.734726,0
389,199.3536211,-85.20782686,0
390,206.1890527,-66.99488438,0
391,211.3643714,-48.24253848,0
392,214.8379084,-29.10177203,0
393,216.5816968,-9.72669522,0
394,216.5816968,9.72669522,0
395,214.8379084,29.10177203,0
396,211.3643714,48.24253848,0
397,206.1890527,66.99488438,0
398,199.3536211,85.20782686,0
399,190.9131113,102.734726,0
400,180.9354814,119.4344656,0
401,169.5010654,135.172589,0
402,156.7019265,149.8223823,0
403,142.6411158,163.2658938,0
404,127.4318427,175.3948844,0
405,111.1965633,186.1116985,0
406,94.06599464,195.3300506,0
407,76.17806186,202.97572,0
408,57.67678812,208.9871482,0
409,38.71113479,213.3159348,0
410,19.43380217,215.9272269,0
411,2.66E-14,216.8,0
412,-19.43380217,215.9272269,0
413,-38.71113479,213.3159348,0
414,-57.67678812,208.9871482,0
415,-76.17806186,202.97572,0
416,-94.06599464,195.3300506,0
417,-111.1965633,186.1116985,0
418,-127.4318427,175.3948844,0
419,-142.6411158,163.2658938,0
420,-156.7019265,149.8223823,0
421,-169.5010654,135.172589,0
422,-180.9354814,119.4344656,0
423,-190.9131113,102.734726,0
424,-199.3536211,85.20782686,0
425,-206.1890527,66.99488438,0
426,-211.3643714,48.24253848,0
427,-214.8379084,29.10177203,0
428,-216.5816968,9.72669522,0
429,-216.5816968,-9.72669522,0
430,-214.8379084,-29.10177203,0
431,-211.3643714,-48.24253848,0
432,-206.1890527,-66.99488438,0
433,-199.3536211,-85.20782686,0
434,-190.9131113,-102.734726,0
435,-180.9354814,-119.4344656,0
436,-169.5010654,-135.172589,0
437,-156.7019265,-149.8223823,0
438,-142.6411158,-163.2658938,0
439,-127.4318427,-175.3948844,0
440,-111.1965633,-186.1116985,0
441,-94.06599464,-195.3300506,0
442,-76.17806186,-202.97572,0
443,-57.67678812,-208.9871482,0
444,-38.71113479,-213.3159348,0
445,-19.43380217,-215.9272269,0
446,10.40864064,-231.7663914,0
447,31.14211767,-229.9003447,0
448,51.62485668,-226.1832756,0
449,71.69194269,-220.6451118,0
450,91.18180734,-213.3304432,0
451,109.9375297,-204.2981634,0
452,127.8080997,-193.6209949,0
453,144.649634,-181.3849039,0
454,160.3265346,-167.6884084,0
455,174.7125801,-152.6417844,0
456,187.6919427,-136.3661785,0
457,199.1601201,-118.9926324,0
458,209.0247774,-100.6610275,0
459,217.20649,-81.51895919,0
460,223.6393837,-61.72054817,0
461,228.2716646,-41.42519959,0
462,231.0660362,-20.79631967,0
463,232,-1.42E-14,0
464,231.0660362,20.79631967,0
465,228.2716646,41.42519959,0
466,223.6393837,61.72054817,0
467,217.20649,81.51895919,0
468,209.0247774,100.6610275,0
469,199.1601201,118.9926324,0
470,187.6919427,136.3661785,0
471,174.7125801,152.6417844,0
472,160.3265346,167.6884084,0
473,144.649634,181.3849039,0
474,127.8080997,193.6209949,0
475,109.9375297,204.2981634,0
476,91.18180734,213.3304432,0
477,71.69194269,220.6451118,0
478,51.62485668,226.1832756,0
479,31.14211767,229.9003447,0
480,10.40864064,231.7663914,0
481,-10.40864064,231.7663914,0
482,-31.14211767,229.9003447,0
483,-51.62485668,226.1832756,0
484,-71.69194269,220.6451118,0
485,-91.18180734,213.3304432,0
486,-109.9375297,204.2981634,0
487,-127.8080997,193.6209949,0
488,-144.649634,181.3849039,0
489,-160.3265346,167.6884084,0
490,-174.7125801,152.6417844,0
491,-187.6919427,136.3661785,0
492,-199.1601201,118.9926324,0
493,-209.0247774,100.6610275,0
494,-217.20649,81.51895919,0
495,-223.6393837,61.72054817,0
496,-228.2716646,41.42519959,0
497,-231.0660362,20.79631967,0
498,-232,4.26E-14,0
499,-231.0660362,-20.79631967,0
500,-228.2716646,-41.42519959,0
501,-223.6393837,-61.72054817,0
502,-217.20649,-81.51895919,0
503,-209.0247774,-100.6610275,0
504,-199.1601201,-118.9926324,0
505,-187.6919427,-136.3661785,0
506,-174.7125801,-152.6417844,0
507,-160.3265346,-167.6884084,0
508,-144.649634,-181.3849039,0
509,-127.8080997,-193.6209949,0
510,-109.9375297,-204.2981634,0
511,-91.18180734,-213.3304432,0
512,-71.69194269,-220.6451118,0
513,-51.62485668,-226.1832756,0
514,-31.14211767,-229.9003447,0
515,-10.40864064,-231.7663914,0
516,22.19469288,-246.6032352,0
517,44.21068715,-243.6209661,0
518,65.87072296,-238.6772043,0
519,87.00040644,-231.811754,0
520,107.4296138,-223.0798917,0
521,126.9938611,-212.5519213,0
522,145.5356285,-200.3126078,0
523,162.9056285,-186.460495,0
524,178.9640083,-171.1071119,0
525,193.5814751,-154.3760749,0
526,206.6403376,-136.4020926,0
527,218.0354537,-117.3298808,0
528,227.6750765,-97.31299784,0
529,235.4815934,-76.51260781,0
530,241.3921511,-55.09618325,0
531,245.359161,-33.23615662,0
532,247.3506833,-11.10853199,0
533,247.3506833,11.10853199,0
534,245.359161,33.23615662,0
535,241.3921511,55.09618325,0
536,235.4815934,76.51260781,0
537,227.6750765,97.31299784,0
538,218.0354537,117.3298808,0
539,206.6403376,136.4020926,0
540,193.5814751,154.3760749,0
541,178.9640083,171.1071119,0
542,162.9056285,186.460495,0
543,145.5356285,200.3126078,0
544,126.9938611,212.5519213,0
545,107.4296138,223.0798917,0
546,87.00040644,231.811754,0
547,65.87072296,238.6772043,0
548,44.21068715,243.6209661,0
549,22.19469288,246.6032352,0
550,3.03E-14,247.6,0
551,-22.19469288,246.6032352,0
552,-44.21068715,243.6209661,0
553,-65.87072296,238.6772043,0
554,-87.00040644,231.811754,0
555,-107.4296138,223.0798917,0
556,-126.9938611,212.5519213,0
557,-145.5356285,200.3126078,0
558,-162.9056285,186.460495,0
559,-178.9640083,171.1071119,0
560,-193.5814751,154.3760749,0
561,-206.6403376,136.4020926,0
562,-218.0354537,117.3298808,0
563,-227.6750765,97.31299784,0
564,-235.4815934,76.51260781,0
565,-241.3921511,55.09618325,0
566,-245.359161,33.23615662,0
567,-247.3506833,11.10853199,0
568,-247.3506833,-11.10853199,0
569,-245.359161,-33.23615662,0
570,-241.3921511,-55.09618325,0
571,-235.4815934,-76.51260781,0
572,-227.6750765,-97.31299784,0
573,-218.0354537,-117.3298808,0
574,-206.6403376,-136.4020926,0
575,-193.5814751,-154.3760749,0
576,-178.9640083,-171.1071119,0
577,-162.9056285,-186.460495,0
578,-145.5356285,-200.3126078,0
579,-126.9938611,-212.5519213,0
580,-107.4296138,-223.0798917,0
581,-87.00040644,-231.811754,0
582,-65.87072296,-238.6772043,0
583,-44.21068715,-243.6209661,0
584,-22.19469288,-246.6032352,0
585,11.82636928,-263.3345723,0
586,35.38388887,-261.2143572,0
587,58.65651819,-256.9909977,0
588,81.45687972,-250.6984977,0
589,103.6013983,-242.3875208,0
590,124.9117794,-232.1249822,0
591,145.2164443,-219.9935097,0
592,164.3519118,-206.0907788,0
593,182.1641143,-190.5287261,0
594,198.5096384,-173.4326482,0
595,213.2568797,-154.9401925,0
596,226.287102,-135.2002495,0
597,237.4953936,-114.3717536,0
598,246.7915119,-92.62240363,0
599,254.1006101,-70.12731249,0
600,259.3638396,-47.06759747,0
601,262.5388239,-23.62892183,0
602,263.6,-1.61E-14,0
603,262.5388239,23.62892183,0
604,259.3638396,47.06759747,0
605,254.1006101,70.12731249,0
606,246.7915119,92.62240363,0
607,237.4953936,114.3717536,0
608,226.287102,135.2002495,0
609,213.2568797,154.9401925,0
610,198.5096384,173.4326482,0
611,182.1641143,190.5287261,0
612,164.3519118,206.0907788,0
613,145.2164443,219.9935097,0
614,124.9117794,232.1249822,0
615,103.6013983,242.3875208,0
616,81.45687972,250.6984977,0
617,58.65651819,256.9909977,0
618,35.38388887,261.2143572,0
619,11.82636928,263.3345723,0
620,-11.82636928,263.3345723,0
621,-35.38388887,261.2143572,0
622,-58.65651819,256.9909977,0
623,-81.45687972,250.6984977,0
624,-103.6013983,242.3875208,0
625,-124.9117794,232.1249822,0
626,-145.2164443,219.9935097,0
627,-164.3519118,206.0907788,0
628,-182.1641143,190.5287261,0
629,-198.5096384,173.4326482,0
630,-213.2568797,154.9401925,0
631,-226.287102,135.2002495,0
632,-237.4953936,114.3717536,0
633,-246.7915119,92.62240363,0
634,-254.1006101,70.12731249,0
635,-259.3638396,47.06759747,0
636,-262.5388239,23.62892183,0
637,-263.6,4.84E-14,0
638,-262.5388239,-23.62892183,0
