id,x,y
1,0,81
2,-16.01,79.402
3,-31.389,74.671
4,-45.529,66.994
5,-57.872,56.673
6,-67.932,44.116
7,-75.312,29.818
8,-79.72,14.344
9,-80.982,-1.696
10,-79.049,-17.67
11,-73.997,-32.946
12,-66.025,-46.922
13,-55.448,-59.046
14,-42.683,-68.841
15,-28.234,-75.92
16,-12.671,-80.003
17,16.01,79.402
18,31.389,74.671
19,45.529,66.994
20,57.872,56.673
21,67.932,44.116
22,75.312,29.818
23,79.72,14.344
24,80.982,-1.696
25,79.049,-17.67
26,73.997,-32.946
27,66.025,-46.922
28,55.448,-59.046
29,42.683,-68.841
30,28.234,-75.92
31,12.671,-80.003
32,0,96
33,-15.982,94.66
34,-31.518,90.678
35,-46.175,84.166
36,-59.543,75.304
37,-71.248,64.34
38,-80.966,51.581
39,-88.423,37.382
40,-93.412,22.139
41,-95.794,6.279
42,-95.503,-9.757
43,-92.546,-25.52
44,-87.006,-40.571
45,-79.037,-54.49
46,-68.862,-66.888
47,-56.766,-77.419
48,-43.085,-85.789
49,-28.201,-91.764
50,-12.531,-95.179
51,15.982,94.66
52,31.518,90.678
53,46.175,84.166
54,59.543,75.304
55,71.248,64.34
56,80.966,51.581
57,88.423,37.382
58,93.412,22.139
59,95.794,6.279
60,95.503,-9.757
61,92.546,-25.52
62,87.006,-40.571
63,79.037,-54.49
64,68.862,-66.888
65,56.766,-77.419
66,43.085,-85.789
67,28.201,-91.764
68,12.531,-95.179
69,0,111
70,-15.951,109.848
71,-31.57,106.416
72,-46.534,100.775
73,-60.532,93.042
74,-73.274,83.378
75,-84.495,71.983
76,-93.962,59.095
77,-101.478,44.979
78,-106.889,29.93
79,-110.08,14.26
80,-110.987,-1.707
81,-109.59,-17.638
82,-105.918,-33.202
83,-100.048,-48.078
84,-92.1,-61.956
85,-82.242,-74.547
86,-70.676,-85.592
87,-57.643,-94.859
88,-43.414,-102.158
89,-28.283,-107.336
90,-12.566,-110.286
91,15.951,109.848
92,31.57,106.416
93,46.534,100.775
94,60.532,93.042
95,73.274,83.378
96,84.495,71.983
97,93.962,59.095
98,101.478,44.979
99,106.889,29.93
100,110.08,14.26
101,110.987,-1.707
102,109.59,-17.638
103,105.918,-33.202
104,100.048,-48.078
105,92.1,-61.956
106,82.242,-74.547
107,70.676,-85.592
108,57.643,-94.859
109,43.414,-102.158
110,28.283,-107.336
111,12.566,-110.286
112,-7.804,125.758
113,-23.293,123.828
114,-38.424,119.998
115,-52.965,114.327
116,-66.694,106.902
117,-79.399,97.836
118,-90.886,87.268
119,-100.978,75.362
120,-109.521,62.299
121,-116.383,48.28
122,-121.459,33.521
123,-124.672,18.247
124,-125.971,2.693
125,-125.338,-12.903
126,-122.781,-28.3
127,-118.34,-43.263
128,-112.083,-57.562
129,-104.106,-70.978
130,-94.532,-83.305
131,-83.507,-94.354
132,-71.201,-103.954
133,-57.802,-111.96
134,-43.516,-118.247
135,-28.562,-122.72
136,-13.171,-125.31
137,7.804,125.758
138,23.293,123.828
139,38.424,119.998
140,52.965,114.327
141,66.694,106.902
142,79.399,97.836
143,90.886,87.268
144,100.978,75.362
145,109.521,62.299
146,116.383,48.28
147,121.459,33.521
148,124.672,18.247
149,125.971,2.693
150,125.338,-12.903
151,122.781,-28.3
152,118.34,-43.263
153,112.083,-57.562
154,104.106,-70.978
155,94.532,-83.305
156,83.507,-94.354
157,71.201,-103.954
158,57.802,-111.96
159,43.516,-118.247
160,28.562,-122.72
161,13.171,-125.31
162,-7.915,142.781
163,-23.647,141.031
164,-39.089,137.554
165,-54.052,132.391
166,-68.353,125.606
167,-81.817,117.282
168,-94.278,107.521
169,-105.584,96.442
170,-115.596,84.182
171,-124.192,70.89
172,-131.266,56.73
173,-136.732,41.874
174,-140.522,26.506
175,-142.591,10.812
176,-142.912,-5.013
177,-141.482,-20.778
178,-138.319,-36.287
179,-133.461,-51.353
180,-126.968,-65.788
181,-118.919,-79.418
182,-109.413,-92.075
183,-98.566,-103.604
184,-86.512,-113.863
185,-73.397,-122.727
186,-59.384,-130.087
187,-44.642,-135.853
188,-29.354,-139.955
189,-13.706,-142.342
190,7.915,142.781
191,23.647,141.031
192,39.089,137.554
193,54.052,132.391
194,68.353,125.606
195,81.817,117.282
196,94.278,107.521
197,105.584,96.442
198,115.596,84.182
199,124.192,70.89
200,131.266,56.73
201,136.732,41.874
202,140.522,26.506
203,142.591,10.812
204,142.912,-5.013
205,141.482,-20.778
206,138.319,-36.287
207,133.461,-51.353
208,126.968,-65.788
209,118.919,-79.418
210,109.413,-92.075
211,98.566,-103.604
212,86.512,-113.863
213,73.397,-122.727
214,59.384,-130.087
215,44.642,-135.853
216,29.354,-139.955
217,13.706,-142.342
218,0,159
219,-15.64,158.229
220,-31.129,155.923
221,-46.316,152.105
222,-61.053,146.811
223,-75.199,140.093
224,-88.615,132.017
225,-101.171,122.66
226,-112.746,112.113
227,-123.227,100.479
228,-132.514,87.87
229,-140.515,74.409
230,-147.152,60.226
231,-152.363,45.459
232,-156.096,30.251
233,-158.314,14.749
234,-158.997,-0.895
235,-158.138,-16.531
236,-155.745,-32.006
237,-151.842,-47.171
238,-146.465,-61.879
239,-139.668,-75.986
240,-131.516,-89.356
241,-122.088,-101.86
242,-111.476,-113.375
243,-99.783,-123.791
244,-87.122,-133.006
245,-73.616,-140.931
246,-59.396,-147.489
247,-44.6,-152.617
248,-29.371,-156.264
249,-13.858,-158.395
250,15.64,158.229
251,31.129,155.923
252,46.316,152.105
253,61.053,146.811
254,75.199,140.093
255,88.615,132.017
256,101.171,122.66
257,112.746,112.113
258,123.227,100.479
259,132.514,87.87
260,140.515,74.409
261,147.152,60.226
262,152.363,45.459
263,156.096,30.251
264,158.314,14.749
265,158.997,-0.895
266,158.138,-16.531
267,155.745,-32.006
268,151.842,-47.171
269,146.465,-61.879
270,139.668,-75.986
271,131.516,-89.356
272,122.088,-101.86
273,111.476,-113.375
274,99.783,-123.791
275,87.122,-133.006
276,73.616,-140.931
277,59.396,-147.489
278,44.6,-152.617
279,29.371,-156.264
280,13.858,-158.395
281,-7.81,175.827
282,-23.37,174.442
283,-38.745,171.682
284,-53.815,167.571
285,-68.461,162.139
286,-82.568,155.43
287,-96.024,147.497
288,-108.724,138.402
289,-120.568,128.216
290,-131.462,117.021
291,-141.32,104.903
292,-150.065,91.96
293,-157.627,78.292
294,-163.949,64.007
295,-168.978,49.218
296,-172.677,34.041
297,-175.015,18.596
298,-175.974,3.005
299,-175.548,-12.61
300,-173.738,-28.126
301,-170.56,-43.42
302,-166.038,-58.372
303,-160.209,-72.864
304,-153.117,-86.783
305,-144.819,-100.017
306,-135.38,-112.464
307,-124.875,-124.025
308,-113.386,-134.609
309,-101.004,-144.132
310,-87.826,-152.521
311,-73.957,-159.707
312,-59.505,-165.636
313,-44.584,-170.259
314,-29.312,-173.542
315,-13.809,-175.457
316,7.81,175.827
317,23.37,174.442
318,38.745,171.682
319,53.815,167.571
320,68.461,162.139
321,82.568,155.43
322,96.024,147.497
323,108.724,138.402
324,120.568,128.216
325,131.462,117.021
326,141.32,104.903
327,150.065,91.96
328,157.627,78.292
329,163.949,64.007
330,168.978,49.218
331,172.677,34.041
332,175.015,18.596
333,175.974,3.005
334,175.548,-12.61
335,173.738,-28.126
336,170.56,-43.42
337,166.038,-58.372
338,160.209,-72.864
339,153.117,-86.783
340,144.819,-100.017
341,135.38,-112.464
342,124.875,-124.025
343,113.386,-134.609
344,101.004,-144.132
345,87.826,-152.521
346,73.957,-159.707
347,59.505,-165.636
348,44.584,-170.259
349,29.312,-173.542
350,13.809,-175.457
351,0,196
352,-15.827,195.36
353,-31.55,193.444
354,-47.067,190.265
355,-62.277,185.843
356,-77.08,180.207
357,-91.38,173.395
358,-105.083,165.45
359,-118.099,156.424
360,-130.345,146.377
361,-141.739,135.374
362,-152.207,123.487
363,-161.682,110.793
364,-170.1,97.376
365,-177.407,83.322
366,-183.556,68.725
367,-188.506,53.679
368,-192.225,38.282
369,-194.689,22.635
370,-195.881,6.84
371,-195.793,-8.999
372,-194.427,-24.78
373,-191.791,-40.398
374,-187.903,-55.753
375,-182.788,-70.744
376,-176.478,-85.273
377,-169.016,-99.245
378,-160.45,-112.568
379,-150.837,-125.157
380,-140.238,-136.928
381,-128.723,-147.805
382,-116.368,-157.716
383,-103.253,-166.598
384,-89.463,-174.391
385,-75.089,-181.046
386,-60.225,-186.518
387,-44.967,-190.772
388,-29.416,-193.78
389,-13.672,-195.523
390,15.827,195.36
391,31.55,193.444
392,47.067,190.265
393,62.277,185.843
394,77.08,180.207
395,91.38,173.395
396,105.083,165.45
397,118.099,156.424
398,130.345,146.377
399,141.739,135.374
400,152.207,123.487
401,161.682,110.793
402,170.1,97.376
403,177.407,83.322
404,183.556,68.725
405,188.506,53.679
406,192.225,38.282
407,194.689,22.635
408,195.881,6.84
409,195.793,-8.999
410,194.427,-24.78
411,191.791,-40.398
412,187.903,-55.753
413,182.788,-70.744
414,176.478,-85.273
415,169.016,-99.245
416,160.45,-112.568
417,150.837,-125.157
418,140.238,-136.928
419,128.723,-147.805
420,116.368,-157.716
421,103.253,-166.598
422,89.463,-174.391
423,75.089,-181.046
424,60.225,-186.518
425,44.967,-190.772
426,29.416,-193.78
427,13.672,-195.523
428,0,216
429,-15.828,215.419
430,-31.572,213.68
431,-47.145,210.792
432,-62.465,206.771
433,-77.449,201.637
434,-92.017,195.42
435,-106.09,188.151
436,-119.592,179.871
437,-132.452,170.624
438,-144.599,160.459
439,-155.969,149.432
440,-166.499,137.601
441,-176.135,125.03
442,-184.824,111.786
443,-192.518,97.942
444,-199.178,83.571
445,-204.767,68.751
446,-209.254,53.561
447,-212.616,38.082
448,-214.835,22.4
449,-215.899,6.596
450,-215.802,-9.242
451,-214.545,-25.031
452,-212.134,-40.686
453,-208.582,-56.122
454,-203.908,-71.256
455,-198.139,-86.006
456,-191.303,-100.295
457,-183.44,-114.044
458,-174.589,-127.179
459,-164.8,-139.631
460,-154.125,-151.332
461,-142.621,-162.22
462,-130.35,-172.235
463,-117.378,-181.324
464,-103.776,-189.438
465,-89.615,-196.533
466,-74.972,-202.572
467,-59.926,-207.521
468,-44.558,-211.354
469,-28.95,-214.051
470,-13.186,-215.597
471,15.828,215.419
472,31.572,213.68
473,47.145,210.792
474,62.465,206.771
475,77.449,201.637
476,92.017,195.42
477,106.09,188.151
478,119.592,179.871
479,132.452,170.624
480,144.599,160.459
481,155.969,149.432
482,166.499,137.601
483,176.135,125.03
484,184.824,111.786
485,192.518,97.942
486,199.178,83.571
487,204.767,68.751
488,209.254,53.561
489,212.616,38.082
490,214.835,22.4
491,215.899,6.596
492,215.802,-9.242
493,214.545,-25.031
494,212.134,-40.686
495,208.582,-56.122
496,203.908,-71.256
497,198.139,-86.006
498,191.303,-100.295
499,183.44,-114.044
500,174.589,-127.179
501,164.8,-139.631
502,154.125,-151.332
503,142.621,-162.22
504,130.35,-172.235
505,117.378,-181.324
506,103.776,-189.438
507,89.615,-196.533
508,74.972,-202.572
509,59.926,-207.521
510,44.558,-211.354
511,28.95,-214.051
512,13.186,-215.597
513,-7.849,236.87
514,-23.512,235.831
515,-39.072,233.757
516,-54.461,230.658
517,-69.611,226.546
518,-84.455,221.441
519,-98.929,215.365
520,-112.969,208.343
521,-126.514,200.408
522,-139.503,191.593
523,-151.88,181.938
524,-163.591,171.485
525,-174.584,160.279
526,-184.812,148.37
527,-194.228,135.81
528,-202.793,122.654
529,-210.467,108.961
530,-217.219,94.789
531,-223.017,80.201
532,-227.837,65.262
533,-231.658,50.036
534,-234.462,34.591
535,-236.238,18.994
536,-236.977,3.313
537,-236.676,-12.381
538,-235.338,-28.022
539,-232.966,-43.54
540,-229.573,-58.866
541,-225.173,-73.935
542,-219.784,-88.679
543,-213.432,-103.034
544,-206.143,-116.937
545,-197.949,-130.327
546,-188.888,-143.145
547,-178.997,-155.335
548,-168.322,-166.844
549,-156.908,-177.62
550,-144.805,-187.618
551,-132.067,-196.792
552,-118.75,-205.103
553,-104.912,-212.515
554,-90.614,-218.993
555,-75.918,-224.512
556,-60.889,-229.045
557,-45.593,-232.573
558,-30.097,-235.081
559,-14.469,-236.558
560,7.849,236.87
561,23.512,235.831
562,39.072,233.757
563,54.461,230.658
564,69.611,226.546
565,84.455,221.441
566,98.929,215.365
567,112.969,208.343
568,126.514,200.408
569,139.503,191.593
570,151.88,181.938
571,163.591,171.485
572,174.584,160.279
573,184.812,148.37
574,194.228,135.81
575,202.793,122.654
576,210.467,108.961
577,217.219,94.789
578,223.017,80.201
579,227.837,65.262
580,231.658,50.036
581,234.462,34.591
582,236.238,18.994
583,236.977,3.313
584,236.676,-12.381
585,235.338,-28.022
586,232.966,-43.54
587,229.573,-58.866
588,225.173,-73.935
589,219.784,-88.679
590,213.432,-103.034
591,206.143,-116.937
592,197.949,-130.327
593,188.888,-143.145
594,178.997,-155.335
595,168.322,-166.844
596,156.908,-177.62
597,144.805,-187.618
598,132.067,-196.792
599,118.75,-205.103
600,104.912,-212.515
601,90.614,-218.993
602,75.918,-224.512
603,60.889,-229.045
604,45.593,-232.573
605,30.097,-235.081
606,14.469,-236.558
607,0,260
608,-22.983,258.982
609,-45.787,255.937
610,-68.232,250.887
611,-90.142,243.874
612,-111.347,234.951
613,-131.681,224.188
614,-150.983,211.67
615,-169.103,197.495
616,-185.899,181.773
617,-201.24,164.629
618,-215.005,146.195
619,-227.086,126.617
620,-237.39,106.048
621,-245.835,84.648
622,-252.355,62.585
623,-256.9,40.033
624,-259.433,17.167
625,-259.935,-5.834
626,-258.401,-28.789
627,-254.845,-51.518
628,-249.293,-73.844
629,-241.79,-95.592
630,-232.393,-116.591
631,-221.177,-136.678
632,-208.229,-155.694
633,-193.651,-173.492
634,-177.556,-189.931
635,-160.072,-204.883
636,-141.334,-218.231
637,-121.49,-229.87
638,-100.694,-239.71
639,-79.11,-247.672
640,-56.907,-253.696
641,-34.258,-257.733
642,-11.341,-259.753
643,22.983,258.982
644,45.787,255.937
645,68.232,250.887
646,90.142,243.874
647,111.347,234.951
648,131.681,224.188
649,150.983,211.67
650,169.103,197.495
651,185.899,181.773
652,201.24,164.629
653,215.005,146.195
654,227.086,126.617
655,237.39,106.048
656,245.835,84.648
657,252.355,62.585
658,256.9,40.033
659,259.433,17.167
660,259.935,-5.834
661,258.401,-28.789
662,254.845,-51.518
663,249.293,-73.844
664,241.79,-95.592
665,232.393,-116.591
666,221.177,-136.678
667,208.229,-155.694
668,193.651,-173.492
669,177.556,-189.931
670,160.072,-204.883
671,141.334,-218.231
672,121.49,-229.87
673,100.694,-239.71
674,79.11,-247.672
675,56.907,-253.696
676,34.258,-257.733
677,11.341,-259.753
678,-12.081,272.733
679,-36.147,270.596
680,-59.93,266.341
681,-83.244,259.999
682,-105.906,251.62
683,-127.739,241.271
684,-148.571,229.032
685,-168.239,214.999
686,-186.589,199.282
687,-203.478,182.005
688,-218.773,163.301
689,-232.355,143.319
690,-244.116,122.214
691,-253.966,100.151
692,-261.826,77.304
693,-267.636,53.852
694,-271.349,29.978
695,-272.937,5.869
696,-272.387,-18.286
697,-269.703,-42.297
698,-264.907,-65.978
699,-258.037,-89.141
700,-249.144,-111.607
701,-238.301,-133.198
702,-225.591,-153.746
703,-211.114,-173.089
704,-194.983,-191.077
705,-177.326,-207.568
706,-158.279,-222.434
707,-137.992,-235.557
708,-116.625,-246.835
709,-94.344,-256.18
710,-71.324,-263.518
711,-47.746,-268.792
712,-23.794,-271.961
713,12.081,272.733
714,36.147,270.596
715,59.93,266.341
716,83.244,259.999
717,105.906,251.62
718,127.739,241.271
719,148.571,229.032
720,168.239,214.999
721,186.589,199.282
722,203.478,182.005
723,218.773,163.301
724,232.355,143.319
725,244.116,122.214
726,253.966,100.151
727,261.826,77.304
728,267.636,53.852
729,271.349,29.978
730,272.937,5.869
731,272.387,-18.286
732,269.703,-42.297
733,264.907,-65.978
734,258.037,-89.141
735,249.144,-111.607
736,238.301,-133.198
737,225.591,-153.746
738,211.114,-173.089
739,194.983,-191.077
740,177.326,-207.568
741,158.279,-222.434
742,137.992,-235.557
743,116.625,-246.835
744,94.344,-256.18
745,71.324,-263.518
746,47.746,-268.792
747,23.794,-271.961
748,0,286
749,-25.282,284.88
750,-50.365,281.53
751,-75.055,275.976
752,-99.157,268.261
753,-122.482,258.446
754,-144.849,246.607
755,-166.081,232.837
756,-186.013,217.244
757,-204.489,199.951
758,-221.363,181.092
759,-236.505,160.815
760,-249.795,139.279
761,-261.129,116.652
762,-270.418,93.112
763,-277.591,68.844
764,-282.59,44.036
765,-285.376,18.883
766,-285.928,-6.417
767,-284.241,-31.668
768,-280.329,-56.67
769,-274.222,-81.228
770,-265.969,-105.151
771,-255.632,-128.25
772,-243.294,-150.346
773,-229.052,-171.264
774,-213.016,-190.841
775,-195.312,-208.924
776,-176.079,-225.371
777,-155.468,-240.054
778,-133.639,-252.857
779,-110.764,-263.68
780,-87.021,-272.439
781,-62.598,-279.065
782,-37.684,-283.506
783,-12.475,-285.728
784,25.282,284.88
785,50.365,281.53
786,75.055,275.976
787,99.157,268.261
788,122.482,258.446
789,144.849,246.607
790,166.081,232.837
791,186.013,217.244
792,204.489,199.951
793,221.363,181.092
794,236.505,160.815
795,249.795,139.279
796,261.129,116.652
797,270.418,93.112
798,277.591,68.844
799,282.59,44.036
800,285.376,18.883
801,285.928,-6.417
802,284.241,-31.668
803,280.329,-56.67
804,274.222,-81.228
805,265.969,-105.151
806,255.632,-128.25
807,243.294,-150.346
808,229.052,-171.264
809,213.016,-190.841
810,195.312,-208.924
811,176.079,-225.371
812,155.468,-240.054
813,133.639,-252.857
814,110.764,-263.68
815,87.021,-272.439
816,62.598,-279.065
817,37.684,-283.506
818,12.475,-285.728
819,-13.231,298.707
820,-39.59,296.367
821,-65.638,291.706
822,-91.172,284.761
823,-115.993,275.584
824,-139.904,264.249
825,-162.72,250.845
826,-184.262,235.475
827,-204.36,218.262
828,-222.857,199.338
829,-239.609,178.854
830,-254.484,156.968
831,-267.366,133.853
832,-278.153,109.689
833,-286.762,84.667
834,-293.125,58.981
835,-297.192,32.833
836,-298.931,6.428
837,-298.329,-20.027
838,-295.389,-46.326
839,-290.137,-72.261
840,-282.611,-97.631
841,-272.873,-122.236
842,-260.996,-145.883
843,-247.076,-168.388
844,-231.22,-189.574
845,-213.553,-209.275
846,-194.214,-227.337
847,-173.353,-243.618
848,-151.134,-257.991
849,-127.732,-270.343
850,-103.329,-280.578
851,-78.117,-288.615
852,-52.293,-294.392
853,-26.06,-297.862
854,13.231,298.707
855,39.59,296.367
856,65.638,291.706
857,91.172,284.761
858,115.993,275.584
859,139.904,264.249
860,162.72,250.845
861,184.262,235.475
862,204.36,218.262
863,222.857,199.338
864,239.609,178.854
865,254.484,156.968
866,267.366,133.853
867,278.153,109.689
868,286.762,84.667
869,293.125,58.981
870,297.192,32.833
871,298.931,6.428
872,298.329,-20.027
873,295.389,-46.326
874,290.137,-72.261
875,282.611,-97.631
876,272.873,-122.236
877,260.996,-145.883
878,247.076,-168.388
879,231.22,-189.574
880,213.553,-209.275
881,194.214,-227.337
882,173.353,-243.618
883,151.134,-257.991
884,127.732,-270.343
885,103.329,-280.578
886,78.117,-288.615
887,52.293,-294.392
888,26.06,-297.862
889,0,313
890,-27.668,311.775
891,-55.12,308.108
892,-82.141,302.03
893,-108.518,293.586
894,-134.045,282.844
895,-158.523,269.888
896,-181.76,254.818
897,-203.574,237.753
898,-223.794,218.827
899,-242.261,198.188
900,-258.832,175.997
901,-273.377,152.428
902,-285.781,127.665
903,-295.947,101.903
904,-303.797,75.343
905,-309.268,48.193
906,-312.317,20.666
907,-312.921,-7.023
908,-311.075,-34.657
909,-306.794,-62.02
910,-300.111,-88.897
911,-291.077,-115.078
912,-279.765,-140.358
913,-266.263,-164.539
914,-250.676,-187.432
915,-233.126,-208.857
916,-213.751,-228.647
917,-192.702,-246.647
918,-170.145,-262.716
919,-146.255,-276.728
920,-121.22,-288.573
921,-95.237,-298.159
922,-68.507,-305.411
923,-41.242,-310.271
924,-13.653,-312.702
925,27.668,311.775
926,55.12,308.108
927,82.141,302.03
928,108.518,293.586
929,134.045,282.844
930,158.523,269.888
931,181.76,254.818
932,203.574,237.753
933,223.794,218.827
934,242.261,198.188
935,258.832,175.997
936,273.377,152.428
937,285.781,127.665
938,295.947,101.903
939,303.797,75.343
940,309.268,48.193
941,312.317,20.666
942,312.921,-7.023
943,311.075,-34.657
944,306.794,-62.02
945,300.111,-88.897
946,291.077,-115.078
947,279.765,-140.358
948,266.263,-164.539
949,250.676,-187.432
950,233.126,-208.857
951,213.751,-228.647
952,192.702,-246.647
953,170.145,-262.716
954,146.255,-276.728
955,121.22,-288.573
956,95.237,-298.159
957,68.507,-305.411
958,41.242,-310.271
959,13.653,-312.702
960,-14.559,328.678
961,-43.562,326.103
